#Wave		#Intensity
1790.699219	90.702301
1789.126953	100.249908
1787.556641	85.911362
1785.984375	81.122322
1784.412109	92.238350
1782.839844	90.629936
1781.267578	82.663429
1779.695313	89.004364
1778.121094	85.808479
1776.548828	82.613869
1774.974609	108.011902
1773.400391	92.109360
1771.826172	76.213165
1770.250000	85.722641
1768.675781	80.944038
1767.099609	95.209190
1765.523438	92.017090
1763.947266	85.653893
1762.371094	72.949776
1760.794922	79.277306
1759.216797	85.602287
1757.640625	77.660530
1756.062500	82.398682
1754.484375	82.382103
1752.906250	91.869240
1751.328125	85.516205
1749.748047	85.498978
1748.169922	75.983772
1746.589844	90.212540
1745.009766	87.029625
1743.429688	85.430031
1741.849609	79.085907
1740.267578	77.488541
1738.687500	69.567490
1737.105469	71.134186
1735.523438	85.343758
1733.941406	88.486740
1732.359375	85.309227
1730.775391	66.338188
1729.193359	77.378876
1727.609375	72.626678
1726.025391	89.975685
1724.441406	89.957436
1722.857422	86.783432
1721.273438	85.188255
1719.687500	88.325439
1718.101563	88.307503
1716.515625	80.406563
1714.929688	83.542770
1713.343750	78.797913
1711.757813	83.508797
1710.169922	59.862045
1708.583984	81.899803
1706.996094	81.883125
1705.408203	78.717728
1703.818359	80.275719
1702.230469	80.259354
1700.642578	89.683327
1699.052734	89.665031
1697.462891	75.491974
1695.873047	80.193848
1694.283203	80.177460
1692.691406	72.302147
1691.101563	75.430290
1689.509766	76.986008
1687.917969	84.824364
1686.326172	92.659500
1684.734375	80.079102
1683.142578	73.783264
1681.548828	83.185356
1679.957031	65.906960
1678.363281	53.342312
1676.769531	75.291344
1675.173828	76.844139
1673.580078	89.371773
1671.986328	68.974564
1670.390625	73.662239
1668.794922	81.481895
1667.199219	68.932045
1665.603516	70.484184
1664.005859	67.337692
1662.410156	82.980537
1660.812500	72.006020
1659.214844	68.861130
1657.617188	79.799866
1656.019531	71.961517
1654.421875	78.202911
1652.822266	70.368103
1651.222656	71.916992
1649.623047	92.222321
1648.023438	76.575600
1646.423828	73.434898
1644.824219	78.106087
1643.222656	70.280945
1641.621094	68.704941
1640.021484	67.129570
1638.417969	79.602318
1636.816406	68.662292
1635.214844	74.888809
1633.611328	73.313438
1632.007813	81.095932
1630.406250	70.164627
1628.800781	84.180092
1627.197266	81.045494
1625.593750	82.586922
1623.988281	71.664337
1622.382813	84.110229
1620.777344	74.749123
1619.171875	82.518333
1617.566406	74.718056
1615.960938	73.146217
1614.353516	76.242958
1612.746094	88.672340
1611.138672	73.100571
1609.531250	80.860390
1607.923828	77.734177
1606.314453	66.837463
1604.707031	59.053356
1603.097656	88.561569
1601.488281	90.096489
1599.878906	72.993996
1598.267578	90.058899
1596.658203	68.306282
1595.046875	74.500381
1593.435547	82.243652
1591.824219	74.469254
1590.212891	69.800331
1588.599609	65.133354
1586.988281	65.119736
1585.375000	72.856834
1583.761719	88.339798
1582.148438	82.123322
1580.535156	77.458603
1578.921875	75.893532
1577.306641	83.620239
1575.691406	69.668930
1574.076172	83.585182
1572.460938	66.544609
1570.845703	66.530647
1569.228516	69.610481
1567.613281	64.956146
1565.996094	75.766258
1564.378906	61.837009
1562.761719	63.369617
1561.142578	77.263779
1559.525391	77.247528
1557.906250	71.052780
1556.287109	83.392235
1554.667969	84.918663
1553.048828	92.619034
1551.429688	92.599533
1549.808594	95.666023
1548.187500	70.963058
1546.568359	66.321053
1544.947266	81.727318
1543.324219	83.251785
1541.703125	72.444595
1540.080078	78.593506
1538.457031	80.117638
1536.835938	81.641121
1535.210938	72.383438
1533.587891	67.748901
1531.964844	66.195160
1530.339844	64.642067
1528.714844	80.016113
1527.089844	69.230064
1525.464844	72.291656
1523.839844	61.511795
1522.212891	69.186119
1520.585938	69.171471
1518.958984	73.767273
1517.332031	72.215149
1515.705078	76.808342
1514.078125	73.720375
1512.449219	55.278553
1510.820313	72.153915
1509.191406	72.138603
1507.562500	76.726906
1505.933594	79.779037
1504.302734	64.423233
1502.673828	70.543793
1501.042969	55.196453
1499.412109	82.777077
1497.781250	64.368484
1496.148438	82.741882
1494.517578	79.660416
1492.884766	76.580254
1491.251953	62.782444
1489.619141	68.892891
1487.986328	82.653862
1486.351563	67.333244
1484.718750	68.848869
1483.083984	76.482445
1481.449219	67.290199
1479.814453	68.804848
1478.179688	64.204155
1476.542969	64.190460
1474.906250	67.232796
1473.271484	64.163055
1471.632813	84.005112
1469.996094	59.554539
1468.359375	70.228806
1466.720703	70.213799
1465.082031	73.250908
1463.445313	80.863922
1461.804688	73.219582
1460.166016	67.103592
1458.527344	79.287277
1456.886719	68.599304
1455.246094	73.156921
1453.605469	77.712585
1451.964844	71.602142
1450.324219	56.355564
1448.681641	77.662643
1447.039063	60.898819
1445.396484	85.240067
1443.753906	71.525421
1442.111328	77.596046
1440.468750	69.973572
1438.824219	68.437714
1437.179688	57.779438
1435.535156	60.807400
1433.890625	71.433342
1432.244141	89.652382
1430.599609	63.806622
1428.953125	74.425056
1427.306641	82.001816
1425.660156	69.838371
1424.013672	68.305450
1422.365234	47.044739
1420.718750	80.414017
1419.070313	74.329025
1417.421875	86.445763
1415.773438	78.845810
1414.125000	62.153496
1412.474609	74.264999
1410.824219	74.248993
1409.173828	80.292816
1407.523438	68.158447
1405.873047	60.572216
1404.222656	89.324745
1402.570313	65.087036
1400.917969	63.559658
1399.265625	90.779907
1397.613281	69.582901
1395.960938	78.641937
1394.306641	69.552834
1392.652344	72.561188
1390.998047	71.034134
1389.343750	77.062927
1387.689453	63.449863
1386.033203	70.988060
1384.378906	55.872124
1382.722656	63.408684
1381.066406	84.526611
1379.410156	89.035538
1377.751953	72.420006
1376.095703	66.370621
1374.437500	75.404823
1372.779297	69.357399
1371.121094	67.834923
1369.462891	48.227707
1367.802734	69.312294
1366.144531	69.297264
1364.484375	37.653381
1362.824219	72.278809
1361.162109	85.812454
1359.501953	88.804131
1357.839844	72.231735
1356.179688	60.180038
1354.517578	76.712883
1352.853516	66.169281
1351.191406	69.161934
1349.529297	63.134125
1347.865234	72.137596
1346.201172	66.111748
1344.537109	72.106216
1342.873047	73.592407
1341.207031	70.573273
1339.542969	70.557915
1337.876953	81.048882
1336.210938	76.529495
1334.544922	63.010563
1332.876953	67.496605
1331.210938	70.481094
1329.542969	67.467186
1327.875000	65.953537
1326.207031	65.939156
1324.539063	77.911095
1322.869141	65.910385
1321.199219	68.891273
1319.531250	71.870857
1317.859375	76.346115
1316.189453	62.859547
1314.519531	64.342148
1312.847656	68.816093
1311.175781	68.801064
1309.503906	68.786026
1307.832031	76.246094
1306.160156	64.271873
1304.486328	58.280346
1302.814453	73.208008
1301.140625	79.166847
1299.466797	77.656136
1297.791016	79.132202
1296.117188	61.202076
1294.441406	80.589966
1292.765625	62.667358
1291.089844	74.587654
1289.414063	67.114182
1287.738281	70.081673
1286.060547	84.974045
1284.382813	73.031845
1282.705078	74.505951
1281.027344	53.632523
1279.349609	67.025948
1277.669922	81.902634
1275.990234	47.641983
1274.310547	62.516376
1272.630859	68.455292
1270.951172	71.415924
1269.269531	55.037682
1267.589844	57.999950
1265.908203	78.803131
1264.226563	56.487942
1262.542969	52.016930
1260.861328	66.864212
1259.177734	77.248322
1257.496094	69.805244
1255.812500	68.305000
1254.126953	71.259102
1252.443359	62.337990
1250.757813	77.163383
1249.074219	62.310551
1247.388672	69.713120
1245.701172	78.595360
1244.015625	66.717209
1242.330078	65.220230
1240.642578	59.278057
1238.955078	57.783367
1237.267578	71.102318
1235.580078	85.896355
1233.890625	57.745159
1232.201172	82.897835
1230.511719	68.079628
1228.822266	62.145947
1227.132813	76.925621
1225.443359	63.597530
1223.751953	51.754005
1222.060547	63.569450
1220.369141	63.555412
1218.677734	60.585960
1216.986328	62.049957
1215.292969	59.082138
1213.599609	64.975990
1211.906250	70.867226
1210.212891	61.995113
1208.519531	67.884399
1206.824219	63.443119
1205.130859	60.478893
1203.435547	72.263657
1201.738281	70.773224
1200.042969	61.912865
1198.347656	66.320526
1196.650391	60.411991
1194.953125	69.237434
1193.255859	67.749290
1191.558594	61.844341
1189.859375	58.886322
1188.162109	66.232430
1186.462891	52.974197
1184.763672	64.731888
1183.062500	57.363270
1181.363281	79.408447
1179.662109	79.390839
1177.960938	63.204601
1176.259766	58.781933
1174.558594	77.868774
1172.857422	76.382591
1171.154297	69.022781
1169.451172	58.729752
1167.748047	68.992134
1166.044922	66.041626
1164.341797	66.026947
1162.636719	61.611458
1160.933594	76.263901
1159.228516	71.848083
1157.523438	71.832108
1155.816406	76.213043
1154.111328	65.938927
1152.404297	52.739407
1150.697266	70.303566
1148.990234	68.823586
1147.283203	73.200287
1145.574219	67.329269
1143.865234	62.924221
1142.156250	48.279926
1140.447266	67.284302
1138.738281	62.882187
1137.029297	64.330231
1135.318359	74.547966
1133.607422	67.224358
1131.896484	65.748299
1130.185547	65.733643
1128.472656	62.798138
1126.761719	62.784130
1125.048828	64.229897
1123.335938	77.350571
1121.621094	67.119476
1119.908203	55.434151
1118.193359	72.923386
1116.480469	61.241970
1114.765625	80.179909
1113.048828	81.619499
1111.333984	74.315437
1109.617188	74.298836
1107.900391	69.912689
1106.183594	80.090393
1104.466797	72.793175
1102.750000	69.865822
1101.031250	81.491898
1099.312500	69.834579
1097.593750	80.000893
1095.875000	82.891472
1094.156250	82.872925
1092.435547	69.772110
1090.716797	75.569534
1088.996094	59.570332
1087.273438	71.177872
1085.552734	71.161934
1083.830078	71.145996
1082.109375	68.226791
1080.386719	72.565430
1078.664063	72.549171
1076.939453	87.039497
1075.216797	72.516655
1073.492188	68.150375
1071.767578	71.034462
1070.042969	69.569168
1068.316406	76.798729
1066.591797	81.127625
1064.865234	65.177216
1063.138672	78.195107
1061.412109	79.625290
1059.685547	72.370377
1057.957031	73.801208
1056.228516	85.358704
1054.501953	96.910995
1052.771484	78.089821
1051.042969	83.855415
1049.314453	72.272903
1047.583984	73.701797
1045.853516	79.464462
1044.123047	66.446251
1042.390625	62.098831
1040.660156	86.630051
1038.927734	76.505997
1037.195313	72.159233
1035.462891	79.357300
1033.730469	86.552116
1031.996094	80.763802
1030.263672	66.326759
1028.529297	87.935249
1026.792969	99.445343
1025.058594	103.745689
1023.324219	96.519379
1021.587891	97.937904
1019.851563	95.035957
1018.115234	97.893768
1016.376953	100.750290
1014.640625	96.410683
1012.902344	93.511665
1011.164063	110.750381
1009.425781	107.849419
1007.687500	99.199089
1005.947266	110.675453
1004.208984	97.717316
1002.468750	110.625519
1000.728516	123.527885
998.986328	113.447678
997.246094	136.393616
995.503906	111.961052
993.761719	154.987991
992.019531	152.083481
990.275391	146.311417
988.533203	176.394501
986.789063	186.391083
985.044922	187.782410
983.300781	199.205002
981.556641	199.159958
979.810547	206.277328
978.064453	201.934219
976.318359	209.047699
974.572266	207.568909
972.826172	196.072449
971.078125	200.320663
969.332031	177.386719
967.583984	195.939362
965.833984	194.465103
964.085938	192.991501
962.337891	210.098709
960.587891	205.764374
958.837891	191.431793
957.087891	197.101517
955.335938	199.912750
953.585938	179.880692
951.833984	216.949738
950.082031	191.214966
948.330078	196.878220
946.576172	199.686234
944.824219	211.048996
943.070313	206.724075
941.316406	188.147491
939.560547	208.055298
937.806641	173.814972
936.050781	178.048691
934.296875	162.343536
932.541016	163.730423
930.783203	148.035614
929.027344	145.155807
927.269531	128.049561
925.511719	119.485764
923.753906	118.036491
921.996094	123.696877
920.238281	126.511719
918.478516	120.798332
916.718750	119.350029
914.958984	116.481865
913.199219	123.556313
911.437500	119.268608
909.675781	110.724228
907.916016	143.341049
906.152344	123.443893
904.390625	107.811501
902.628906	121.969452
900.865234	120.523758
899.101563	113.408287
897.337891	119.051582
895.572266	106.271843
893.808594	114.747444
892.042969	123.219170
890.277344	124.607079
888.511719	111.837677
886.746094	116.058212
884.978516	110.371666
883.210938	111.761192
881.443359	120.221962
879.675781	120.194534
877.908203	103.202347
876.138672	107.419022
874.369141	110.220680
872.599609	101.718941
870.830078	107.345482
869.060547	97.436150
867.289063	108.708260
865.517578	122.798164
863.746094	98.780556
861.974609	111.455444
860.201172	122.714027
858.429688	118.455429
856.656250	102.919884
854.882813	107.124969
853.107422	122.601860
851.333984	104.258202
849.558594	111.277214
847.783203	116.884766
846.007813	115.450096
844.232422	142.168182
842.455078	129.470108
840.677734	119.591736
838.900391	111.124527
837.123047	99.848541
835.345703	119.509613
833.566406	118.076569
831.787109	122.265579
830.007813	134.882843
828.228516	109.567192
826.449219	122.181557
824.667969	150.234833
822.886719	151.604126
821.105469	157.183060
819.324219	169.774902
817.541016	186.569275
815.759766	190.733856
813.976563	199.102890
812.193359	206.066269
810.408203	203.216003
808.625000	215.779877
806.839844	210.126953
805.054688	221.282913
803.269531	221.232101
801.484375	195.983429
799.697266	194.538849
797.910156	170.707092
796.123047	179.061386
794.335938	167.831467
792.548828	152.411880
790.759766	170.550232
788.970703	150.944183
787.181641	166.279877
785.392578	148.080780
783.603516	138.270050
781.812500	125.671135
780.021484	127.038239
778.230469	145.153152
776.439453	122.793625
774.646484	138.111038
772.853516	119.947617
771.060547	124.103256
769.267578	119.892380
767.474609	101.745674
765.679688	124.017517
763.884766	111.450729
762.089844	108.639420
760.294922	121.146812
758.500000	101.628487
756.703125	105.780609
754.906250	104.364685
753.109375	108.514244
751.312500	119.616310
749.513672	122.369850
747.716797	108.439156
745.917969	88.955185
744.119141	105.609901
742.318359	106.974800
740.519531	98.616325
738.718750	115.257256
736.917969	112.453995
735.117188	105.488014
733.314453	95.749886
731.513672	99.889839
729.710938	105.414909
727.908203	115.097565
726.105469	120.616547
724.300781	108.113968
722.498047	113.631989
720.693359	116.376579
718.888672	112.194313
717.082031	126.016296
715.277344	99.682129
713.470703	114.884750
711.664063	134.231812
709.857422	132.817230
708.048828	118.954552
706.242188	100.949661
704.433594	109.221588
702.625000	114.725212
700.816406	120.226273
699.005859	116.053642
697.197266	102.214035
695.386719	121.523643
693.576172	115.972946
691.763672	131.129471
689.953125	131.099060
688.140625	114.512604
686.328125	117.244736
684.515625	119.975586
682.701172	130.977417
680.888672	133.703796
679.074219	130.916611
677.259766	119.864220
675.445313	117.081520
673.628906	111.545891
671.812500	119.780716
669.996094	112.870529
668.179688	112.844299
666.363281	127.952202
664.544922	114.167358
662.728516	97.638527
660.910156	105.865044
659.089844	119.585930
657.271484	115.435417
655.451172	116.782471
653.632813	105.766563
651.810547	93.382492
649.990234	108.463234
648.169922	116.673775
646.347656	113.901978
644.525391	102.899506
642.703125	100.132187
640.878906	83.652611
639.056641	98.714493
637.232422	101.432922
635.408203	104.150070
633.583984	108.236015
631.757813	116.429314
629.933594	104.077225
628.107422	97.207359
626.279297	91.709488
624.453125	97.162003
622.626953	106.716446
620.798828	102.588013
618.970703	92.991417
617.142578	83.399292
615.312500	90.214226
613.482422	106.591911
611.654297	83.340866
609.822266	83.321388
607.992188	77.839500
606.162109	83.282448
604.330078	83.262978
602.498047	94.160690
600.666016	90.045677
598.832031	83.204575
597.000000	83.185104
595.166016	84.529015
593.332031	89.961433
591.496094	87.214912
589.662109	89.919319
587.826172	81.725700
585.990234	99.409645
584.154297	84.410332
582.318359	81.668282
580.480469	103.422249
578.642578	84.351006
576.804688	87.051598
574.966797	95.190361
573.126953	78.853516
571.289063	86.990372
569.449219	77.457626
567.609375	97.818253
565.767578	67.913399
563.927734	82.834900
562.085938	78.742569
560.244141	90.939880
558.402344	92.275520
556.558594	113.960632
554.714844	94.944885
552.871094	103.058800
551.027344	105.746010
549.183594	103.010361
547.337891	96.210739
545.494141	93.478592
543.648438	123.254364
541.800781	136.766617
539.955078	132.673019
538.107422	127.227852
536.259766	148.848618
534.412109	179.929138
532.564453	179.886780
530.714844	205.536484
528.865234	301.472626
527.015625	450.075043
525.166016	766.163391
523.314453	1944.002319
521.464844	5018.908691
519.613281	3986.094238
517.761719	1376.984253
515.908203	618.147095
514.056641	376.468018
512.203125	240.127228
510.349609	207.701492
508.494141	180.684616
506.640625	150.984329
504.785156	148.253174
502.929688	125.311714
501.074219	130.670593
499.218750	125.252518
497.361328	109.065125
495.503906	117.116333
493.646484	122.472031
491.789063	110.333321
489.929688	95.509918
488.072266	84.728188
486.212891	116.977913
484.351563	92.753639
482.492188	98.107430
480.630859	100.771446
478.769531	88.657875
476.908203	98.037766
475.046875	92.643883
473.183594	81.883163
471.322266	93.942017
469.458984	93.919754
467.593750	96.580276
465.730469	88.510925
463.865234	92.512207
462.000000	85.788071
460.134766	101.849167
458.269531	100.485199
456.402344	96.442894
454.535156	83.028336
452.667969	108.446747
450.800781	84.327438
448.933594	80.292770
447.064453	94.990532
445.195313	105.668579
443.326172	88.259094
441.455078	88.238113
439.585938	113.612976
437.714844	108.240730
435.843750	106.878998
433.970703	126.888611
432.099609	105.492790
430.226563	116.147949
428.353516	102.773140
426.480469	110.755058
424.605469	120.067238
422.732422	98.698433
420.857422	98.674919
418.982422	105.317039
417.105469	91.963844
415.230469	117.259254
413.353516	101.245209
411.476563	111.875900
409.597656	98.533829
407.720703	103.835197
405.841797	97.155899
403.962891	95.802124
402.083984	114.402992
400.205078	93.096474
398.324219	109.029816
396.443359	101.027878
394.562500	111.635712
392.681641	115.595062
390.798828	95.642006
388.916016	110.227615
387.033203	111.528969
385.150391	114.157104
383.265625	115.456879
381.380859	120.736336
379.498047	99.484146
377.611328	115.373978
375.726563	111.368881
373.839844	96.761673
371.953125	106.014786
370.066406	120.562912
368.179688	99.341217
366.291016	99.317398
364.402344	120.476204
362.513672	119.123711
360.625000	125.711525
358.734375	113.774696
356.845703	108.456810
354.955078	136.199631
353.064453	117.658791
351.171875	109.700378
349.279297	134.780121
347.386719	112.289780
345.494141	125.470177
343.601563	124.119583
341.707031	133.330460
339.812500	150.455612
337.917969	125.349503
336.023438	139.830002
334.126953	125.289177
332.232422	137.125656
330.335938	142.365417
328.437500	143.649002
326.541016	137.026581
324.642578	144.897034
322.744141	140.911316
320.845703	156.676682
318.947266	134.261902
317.046875	126.333664
315.146484	135.512787
313.246094	164.417587
311.345703	173.583054
309.443359	145.932327
307.541016	161.669739
305.638672	169.515106
303.736328	181.297928
301.832031	156.298828
299.927734	161.513519
298.023438	173.289673
296.119141	153.560516
294.214844	145.650375
292.308594	169.228394
290.402344	152.137527
288.496094	140.299789
286.587891	150.752975
284.681641	149.405884
282.773438	157.231247
280.865234	141.473831
278.955078	144.058792
277.046875	146.642471
275.136719	155.769852
273.226563	130.867279
271.314453	149.152496
269.404297	141.268066
267.492188	158.234146
265.580078	149.043900
263.667969	158.157303
261.753906	135.903824
259.839844	134.564346
257.925781	139.756165
256.011719	139.722198
254.097656	144.910202
252.181641	140.959412
250.265625	172.241806
248.349609	152.631714
246.431641	160.419922
244.515625	143.430038
242.597656	148.609467
240.679688	143.360168
238.759766	149.840027
236.841797	131.566544
234.921875	128.929825
233.001953	134.106400
231.080078	140.582123
229.160156	117.123177
227.238281	130.105103
225.316406	126.171135
223.394531	110.535339
221.470703	133.910095
219.546875	132.577606
217.623047	113.053261
215.699219	105.230751
213.775391	112.997986
211.849609	112.970345
209.923828	116.837288
207.998047	112.915070
206.070313	112.887428
204.142578	119.345985
202.214844	125.801361
200.287109	107.618088
198.359375	107.591713
196.429688	108.861313
194.500000	112.721573
192.570313	86.787277
190.640625	110.076248
188.708984	107.459846
186.777344	111.316605
184.845703	117.759583
182.914063	109.968201
180.980469	100.887199
179.046875	115.086601
177.113281	113.765518
175.179688	104.690247
173.244141	95.619415
171.308594	104.638748
169.373047	102.029961
167.437500	92.966446
165.500000	96.816200
163.562500	98.082924
161.625000	100.639252
159.687500	100.614456
157.750000	101.879265
155.810547	107.011322
153.871094	108.273903
151.929688	112.113159
149.990234	112.085495
148.048828	112.057823
146.107422	114.605560
144.166016	117.152023
142.222656	108.113617
140.281250	129.961624
138.337891	140.220947
136.392578	124.752922
134.449219	111.864120
132.503906	124.691208
130.558594	129.800980
128.613281	111.781082
126.666016	107.899834
124.720703	111.725716
122.773438	129.672424
120.824219	110.386780
118.876953	123.191902
116.927734	130.858932
114.978516	119.282959
113.029297	108.995003
111.080078	111.531898
109.128906	157.643875
107.177734	167.855438
105.226563	140.912292
103.273438	120.386032
101.322266	129.318802
99.369141	106.245453
97.416016	92.141808
95.460938	125.384026
93.505859	107.445274
91.550781	124.042816
89.595703	104.834816
87.640625	106.086853
85.683594	108.616089
83.726563	116.254120
81.769531	131.551529
79.812500	97.042931
77.853516	130.209320
75.894531	134.005554
73.935547	144.179504
71.974609	110.977730
70.015625	110.950005
68.054688	140.246552
66.091797	117.267792
64.130859	110.866814
62.167969	151.607483
60.205078	154.116928
58.242188	118.423859
56.279297	87.840858
54.314453	68.727806
52.349609	52.169147
50.384766	33.074581
48.417969	26.707388
46.453125	10.171691
44.486328	0.000000
42.517578	7.624941
40.550781	13.975549
38.582031	3.810556
36.613281	5.079465
34.644531	7.617283
32.673828	8.884597
30.705078	0.000000
28.734375	1.268590
26.763672	5.073082
24.791016	5.071805
22.818359	5.070529
20.845703	7.603877
18.873047	1.266994
16.898438	2.533349
14.925781	-3.799065
