#Wave		#Intensity
1790.746094	33.416843
1789.173828	20.686617
1787.603516	12.727688
1786.031250	27.040943
1784.458984	39.758156
1782.886719	33.390186
1781.314453	23.845369
1779.742188	30.198099
1778.167969	38.137341
1776.593750	33.363499
1775.021484	30.179983
1773.447266	25.409636
1771.873047	31.755684
1770.296875	33.336788
1768.722656	31.742960
1767.146484	17.455128
1765.570313	28.557205
1763.994141	25.379087
1762.417969	19.030495
1760.841797	28.540009
1759.263672	26.949036
1757.687500	30.113455
1756.109375	28.522800
1754.531250	12.674250
1752.953125	31.679245
1751.375000	33.256508
1749.794922	31.666485
1748.216797	25.328083
1746.636719	28.488348
1745.056641	15.823668
1743.476563	23.730711
1741.896484	28.471106
1740.314453	30.046764
1738.734375	26.878515
1737.152344	12.646156
1735.570313	33.189449
1733.988281	25.282084
1732.406250	33.176018
1730.822266	25.271849
1729.240234	33.162582
1727.656250	9.473104
1726.072266	33.149143
1724.488281	39.455265
1722.904297	29.979918
1721.320313	22.085981
1719.734375	20.504248
1718.148438	29.961660
1716.564453	33.108791
1714.978516	22.068041
1713.390625	28.367426
1711.804688	20.483418
1710.216797	22.054575
1708.630859	23.625092
1707.042969	17.321539
1705.455078	23.615467
1703.867188	26.758739
1702.277344	28.327007
1700.689453	17.307417
1699.099609	22.023127
1697.509766	28.309668
1695.919922	25.159010
1694.330078	15.721169
1692.740234	26.720526
1691.148438	23.572113
1689.556641	23.567293
1687.966797	28.274963
1686.375000	32.980705
1684.781250	25.123011
1683.189453	28.257599
1681.597656	26.682262
1680.003906	9.415339
1678.410156	21.964619
1676.816406	25.097271
1675.222656	23.523863
1673.626953	29.790775
1672.033203	23.514204
1670.437500	23.509373
1668.841797	31.339388
1667.246094	32.899590
1665.650391	23.494875
1664.054688	10.962019
1662.457031	23.485205
1660.859375	29.741802
1659.263672	29.735676
1657.666016	31.294262
1656.066406	26.594639
1654.468750	12.512544
1652.869141	15.637453
1651.271484	15.634227
1649.671875	26.572699
1648.072266	17.190550
1646.472656	24.999269
1644.871094	20.307709
1643.271484	29.674364
1641.669922	21.860800
1640.068359	21.856277
1638.466797	18.730076
1636.865234	9.363099
1635.261719	26.523287
1633.660156	32.757275
1632.056641	17.155016
1630.453125	20.269907
1628.849609	28.060205
1627.246094	18.702923
1625.640625	23.373804
1624.037109	23.368952
1622.431641	24.921705
1620.826172	15.572831
1619.220703	23.354393
1617.613281	21.792902
1616.007813	9.337873
1614.400391	20.227852
1612.794922	26.446302
1611.187500	20.219433
1609.578125	15.550172
1607.970703	24.875093
1606.363281	15.543694
1604.753906	20.202591
1603.144531	15.537215
1601.535156	9.320385
1599.925781	15.530734
1598.316406	24.843988
1596.705078	13.971827
1595.093750	31.042021
1593.484375	12.414214
1591.873047	20.168884
1590.259766	23.266924
1588.648438	20.160452
1587.035156	20.156235
1585.423828	23.252329
1583.810547	12.398646
1582.197266	21.693089
1580.583984	21.688545
1578.968750	15.488573
1577.355469	6.194131
1575.740234	24.771330
1574.125000	13.930951
1572.509766	21.665823
1570.892578	27.850214
1569.277344	12.375275
1567.660156	24.745354
1566.044922	18.555119
1564.427734	18.551220
1562.808594	27.820982
1561.191406	10.816997
1559.574219	24.719364
1557.955078	32.437344
1556.335938	10.810172
1554.716797	12.351883
1553.097656	24.698565
1551.476563	16.976686
1549.857422	9.258060
1548.236328	9.256110
1546.615234	32.389557
1544.994141	12.336277
1543.373047	18.500513
1541.751953	20.037994
1540.128906	12.328471
1538.505859	23.111004
1536.882813	21.565716
1535.259766	18.480993
1533.636719	15.397574
1532.011719	13.854888
1530.388672	21.547493
1528.763672	18.465374
1527.138672	18.461468
1525.513672	18.457561
1523.886719	15.378046
1522.261719	23.062185
1520.634766	9.222920
1519.007813	18.441933
1517.380859	15.365022
1515.753906	16.897942
1514.125000	24.573612
1512.498047	21.497351
1510.869141	16.887192
1509.240234	18.418484
1507.611328	24.552765
1505.982422	10.739553
1504.351563	15.338962
1502.722656	9.201422
1501.091797	24.531910
1499.460938	22.993778
1497.830078	27.586668
1496.197266	22.984001
1494.566406	18.383289
1492.933594	27.569065
1491.300781	18.375465
1489.667969	19.902515
1488.035156	10.714457
1486.400391	12.242485
1484.767578	13.769861
1483.132813	32.122829
1481.498047	27.527983
1479.863281	24.464100
1478.226563	18.344160
1476.591797	27.510370
1474.955078	12.224222
1473.318359	30.554031
1471.681641	29.020130
1470.044922	6.108196
1468.408203	15.267228
1466.769531	21.369551
1465.130859	13.734632
1463.494141	9.154464
1461.853516	13.728759
1460.214844	19.826187
1458.576172	30.495298
1456.935547	24.391018
1455.294922	12.192898
1453.654297	15.237858
1452.013672	25.898809
1450.373047	16.754463
1448.730469	15.228065
1447.087891	12.179841
1445.445313	19.787996
1443.802734	12.174617
1442.160156	24.344011
1440.517578	18.254089
1438.873047	18.250172
1437.228516	31.930943
1435.583984	18.242334
1433.939453	19.758284
1432.294922	7.597707
1430.648438	21.269009
1429.001953	15.188883
1427.355469	21.259863
1425.708984	18.218821
1424.062500	19.732809
1422.416016	10.623073
1420.767578	16.689808
1419.119141	22.753927
1417.470703	31.848640
1415.822266	9.097651
1414.173828	16.675434
1412.523438	13.640596
1410.873047	15.152951
1409.222656	30.299370
1407.572266	12.117134
1405.921875	10.600205
1404.271484	7.569942
1402.619141	22.704924
1400.966797	6.053339
1399.314453	24.208128
1397.662109	21.177538
1396.009766	19.660608
1394.355469	18.144333
1392.701172	12.093608
1391.048828	16.625116
1389.392578	25.687805
1387.738281	15.107205
1386.083984	13.593544
1384.427734	15.100670
1382.771484	27.175323
1381.115234	10.565893
1379.458984	13.581779
1377.802734	19.613876
1376.144531	15.084329
1374.486328	22.621590
1372.828125	16.585571
1371.169922	13.567071
1369.511719	18.085505
1367.851563	13.561188
1366.193359	18.077662
1364.533203	9.036869
1362.873047	13.552362
1361.212891	22.582367
1359.550781	24.082628
1357.890625	9.029024
1356.228516	6.018042
1354.566406	21.058571
1352.904297	15.038568
1351.240234	12.028239
1349.578125	13.528827
1347.914063	18.034513
1346.250000	13.522943
1344.585938	7.511112
1342.921875	6.007582
1341.257813	10.510981
1339.591797	13.511175
1337.925781	16.510063
1336.259766	18.007055
1334.593750	24.004177
1332.927734	17.999210
1331.259766	1.499607
1329.591797	10.494963
1327.923828	19.486395
1326.255859	17.983519
1324.587891	22.474497
1322.919922	20.971621
1321.250000	8.985876
1319.580078	7.486596
1317.910156	26.945860
1316.240234	13.469988
1314.568359	22.445078
1312.898438	10.472081
1311.226563	22.435270
1309.554688	16.448936
1307.882813	13.455279
1306.208984	13.452337
1304.537109	14.943773
1302.863281	4.482152
1301.189453	22.405853
1299.515625	8.960381
1297.841797	20.902979
1296.166016	14.927431
1294.492188	13.431746
1292.816406	20.889252
1291.140625	14.917626
1289.462891	25.354408
1287.787109	19.384417
1286.109375	23.852514
1284.433594	8.942732
1282.755859	19.371672
1281.076172	13.408216
1279.398438	13.405275
1277.720703	13.402334
1276.041016	25.309965
1274.361328	20.838926
1272.681641	26.787022
1271.000000	22.317617
1269.320313	17.850174
1267.638672	20.820627
1265.957031	16.355471
1264.275391	22.298014
1262.593750	23.779320
1260.912109	16.344688
1259.228516	16.341095
1257.544922	19.307957
1255.861328	25.243311
1254.177734	11.876592
1252.494141	23.747957
1250.808594	19.290968
1249.123047	20.770317
1247.437500	23.732279
1245.751953	25.209993
1244.066406	11.860913
1242.378906	23.716600
1240.693359	13.337647
1239.005859	20.742880
1237.318359	26.663538
1235.628906	17.771772
1233.941406	28.132437
1232.251953	17.763935
1230.562500	19.240019
1228.873047	23.674797
1227.183594	20.710876
1225.492188	25.143370
1223.802734	14.786953
1222.111328	8.870213
1220.419922	16.258465
1218.728516	13.299442
1217.035156	17.728672
1215.343750	16.247692
1213.650391	17.720837
1211.957031	17.716921
1210.263672	7.380418
1208.570313	13.281815
1206.875000	16.229738
1205.179688	13.275939
1203.484375	16.222557
1201.789063	19.167871
1200.093750	11.793002
1198.396484	26.528381
1196.701172	11.787781
1195.003906	22.097195
1193.306641	17.673840
1191.609375	19.142418
1189.910156	19.138176
1188.210938	16.190252
1186.513672	26.487268
1184.812500	11.769509
1183.113281	20.592075
1181.414063	20.587507
1179.712891	26.463781
1178.011719	14.698839
1176.310547	16.165134
1174.609375	20.569242
1172.908203	24.971392
1171.205078	17.622952
1169.501953	10.277772
1167.798828	19.083052
1166.095703	24.949217
1164.392578	13.205475
1162.687500	20.537285
1160.984375	20.532721
1159.279297	14.662969
1157.572266	8.795825
1155.867188	21.984673
1154.162109	19.049145
1152.455078	13.184937
1150.748047	14.646669
1149.041016	8.786046
1147.333984	26.352272
1145.625000	19.027960
1143.916016	8.780180
1142.207031	13.167337
1140.498047	27.791521
1138.789063	11.699086
1137.080078	21.930901
1135.369141	14.617342
1133.658203	16.075493
1131.947266	13.149744
1130.236328	10.225298
1128.523438	17.525173
1126.812500	29.202108
1125.099609	18.977137
1123.386719	27.729628
1121.673828	26.264311
1119.958984	11.670423
1118.244141	24.794111
1116.531250	24.788576
1114.816406	20.409563
1113.099609	5.830001
1111.384766	16.028923
1109.667969	23.309587
1107.953125	20.391333
1106.236328	17.474379
1104.517578	23.293964
1102.800781	16.011021
1101.082031	11.641775
1099.365234	13.094068
1097.646484	26.182278
1095.925781	26.176422
1094.207031	24.716644
1092.486328	10.175164
1090.767578	23.252314
1089.046875	14.529443
1087.326172	21.789284
1085.603516	20.332111
1083.882813	27.587400
1082.160156	21.774647
1080.437500	11.610543
1078.714844	20.313898
1076.990234	27.562683
1075.267578	29.006847
1073.542969	26.100311
1071.818359	21.745382
1070.093750	27.537973
1068.369141	11.592336
1066.642578	7.243585
1064.916016	13.035527
1063.189453	23.169069
1061.462891	34.745804
1059.736328	23.158670
1058.007813	23.153471
1056.281250	10.127369
1054.552734	24.589514
1052.824219	27.476225
1051.093750	26.024261
1049.365234	30.354815
1047.634766	30.347994
1045.904297	37.565262
1044.173828	26.000874
1042.443359	25.995028
1040.710938	18.769964
1038.978516	24.539818
1037.248047	30.307074
1035.513672	25.971647
1033.781250	30.293438
1032.048828	18.748859
1030.314453	24.512220
1028.580078	25.948273
1026.845703	17.294954
1025.111328	23.054745
1023.375000	23.049553
1021.638672	25.924906
1019.902344	11.519585
1018.166016	27.352848
1016.429688	25.907385
1014.691406	40.291290
1012.955078	20.141104
1011.216797	24.451540
1009.478516	24.446026
1007.738281	28.753544
1006.000000	24.434999
1004.259766	30.177599
1002.519531	30.170790
1000.779297	21.545700
999.039063	21.540836
997.296875	30.150364
995.554688	35.885185
993.812500	28.701664
992.070313	30.129942
990.328125	27.254265
988.583984	35.852772
986.841797	25.808163
985.097656	30.102718
983.353516	47.293579
981.607422	30.089109
979.863281	54.434647
978.117188	54.422337
976.371094	45.818970
974.625000	35.787971
972.878906	44.367046
971.130859	35.771778
969.382813	47.208061
967.634766	48.627598
965.886719	54.336189
964.138672	54.323887
962.388672	52.882332
960.638672	30.007498
958.888672	47.143955
957.138672	49.989838
955.388672	41.410763
953.636719	41.401379
951.884766	41.391994
950.132813	49.944530
948.380859	29.959923
946.628906	35.658485
944.875000	38.502430
943.121094	64.156158
941.367188	57.014759
939.613281	29.925957
937.859375	29.919165
936.103516	39.883163
934.347656	38.450035
932.591797	38.441303
930.835938	29.892002
929.080078	17.077265
927.322266	29.878424
925.564453	11.379670
923.806641	24.176304
922.048828	24.170811
920.289063	27.008295
918.531250	29.844486
916.771484	21.312643
915.011719	21.307796
913.250000	29.824129
911.490234	21.298103
909.728516	25.551910
907.966797	22.707640
906.205078	22.702473
904.443359	22.697306
902.679688	29.783432
900.917969	39.702198
899.154297	26.934643
897.390625	25.511219
895.625000	21.254507
893.861328	31.166174
892.095703	25.493786
890.330078	28.319973
888.564453	28.313519
886.798828	29.722418
885.031250	21.225458
883.263672	28.294157
881.496094	21.215776
879.728516	35.351563
877.960938	28.274797
876.191406	25.441511
874.421875	29.674990
872.652344	29.668217
870.882813	26.836544
869.111328	29.654673
867.341797	40.942337
865.570313	29.641129
863.798828	29.634359
862.027344	25.395075
860.253906	23.978758
858.482422	25.383471
856.708984	25.377668
854.935547	22.552773
853.160156	42.276779
851.386719	23.951363
849.611328	21.128723
847.835938	33.798222
846.060547	26.750805
844.285156	22.521839
842.507813	23.923979
840.730469	19.697590
838.953125	40.792812
837.175781	29.532860
835.398438	29.526096
833.619141	26.707970
831.839844	35.134014
830.060547	29.505812
828.281250	29.499052
826.501953	28.087896
824.720703	22.465168
822.939453	28.075022
821.158203	26.665155
819.376953	29.465256
817.595703	30.861284
815.812500	36.464062
814.029297	32.249271
812.246094	26.634588
810.462891	29.431475
808.677734	29.424719
806.892578	29.417965
805.107422	35.013348
803.322266	16.802547
801.537109	25.198032
799.750000	23.792675
797.962891	27.984953
796.177734	29.377449
794.388672	15.384651
792.601563	25.169098
790.812500	22.367388
789.023438	29.350449
787.234375	36.330296
785.445313	6.984988
783.656250	29.330202
781.865234	29.323456
780.074219	29.316708
778.283203	29.309961
776.492188	26.512434
774.699219	29.296471
772.908203	33.473972
771.115234	26.494125
769.320313	25.093918
767.527344	29.269493
765.732422	40.410465
763.939453	29.256008
762.144531	33.427734
760.347656	36.205029
758.552734	29.235783
756.755859	29.229042
754.960938	34.788456
753.164063	29.215563
751.365234	27.817928
749.568359	30.592661
747.769531	29.195347
745.970703	29.188610
744.171875	26.402647
742.373047	29.175137
740.572266	37.502228
738.771484	45.825474
736.970703	33.319920
735.169922	36.088242
733.369141	29.141460
731.566406	40.233669
729.763672	37.450275
727.960938	34.668167
726.158203	37.432964
724.355469	26.335625
722.550781	26.329535
720.746094	44.334225
718.941406	52.634712
717.136719	55.392139
715.330078	59.532772
713.523438	52.598179
711.716797	56.737530
709.910156	66.409050
708.103516	87.141693
706.294922	67.761177
704.486328	81.571091
702.677734	66.347542
700.869141	77.387535
699.060547	64.935196
697.250000	80.114227
695.439453	80.095657
693.628906	66.270691
691.818359	66.255325
690.005859	74.519951
688.193359	66.224586
686.380859	42.760124
684.568359	64.814819
682.755859	45.497719
680.941406	41.351959
679.126953	53.745068
677.312500	49.599312
675.498047	45.455475
673.683594	46.822037
671.867188	57.825550
670.050781	28.906057
668.234375	61.927155
666.417969	50.906048
664.599609	33.012463
662.781250	48.131981
660.962891	43.996151
659.144531	46.735035
657.326172	48.098404
655.505859	42.591534
653.685547	54.944027
651.865234	35.705307
650.044922	37.069954
648.222656	42.551891
646.402344	41.169659
644.580078	34.300060
642.755859	42.522167
640.933594	28.798628
639.109375	38.389221
637.287109	41.121723
635.462891	28.778496
633.636719	28.771788
631.812500	42.462734
629.986328	42.452831
628.160156	28.751661
626.333984	42.433025
624.507813	45.160099
622.679688	28.731539
620.853516	38.299778
619.025391	31.453186
617.195313	39.649105
615.367188	42.373627
613.537109	28.698009
611.707031	38.255074
609.876953	28.684601
608.046875	28.677898
606.214844	36.862965
604.384766	32.759418
602.552734	28.657789
600.720703	32.744099
598.886719	24.552330
597.054688	43.638374
595.220703	46.354923
593.386719	50.433258
591.550781	46.333225
589.716797	64.033875
587.880859	99.433586
586.044922	100.772079
584.208984	114.363136
582.373047	112.975197
580.535156	91.175476
578.697266	72.106979
576.859375	72.090073
575.021484	58.474461
573.181641	53.022541
571.343750	44.854706
569.503906	57.074413
567.664063	50.268044
565.822266	48.897972
563.982422	46.170578
562.140625	43.444462
560.298828	46.148899
558.457031	44.781063
556.613281	62.407425
554.769531	65.105492
552.925781	52.885784
551.082031	56.940536
549.238281	66.415009
547.392578	75.885025
545.548828	69.093323
543.703125	74.494888
541.855469	98.851768
540.009766	90.705620
538.162109	69.028328
536.314453	87.956581
534.466797	101.464470
532.619141	106.850746
530.769531	116.291138
528.919922	152.765152
527.070313	183.815643
525.220703	277.009766
523.369141	522.817139
521.519531	1003.518250
519.667969	900.657959
517.816406	402.298035
515.962891	234.843445
514.111328	165.970871
512.257813	110.621140
510.404297	107.897591
508.550781	83.600899
506.695313	91.669662
504.839844	79.518135
502.984375	72.762123
501.128906	71.397804
499.273438	71.380936
497.416016	71.364067
495.558594	68.654854
493.701172	59.217636
491.843750	61.894711
489.984375	48.427883
488.126953	64.555237
486.267578	53.783306
484.408203	47.049255
482.546875	60.477585
480.687500	56.432384
478.826172	60.448952
476.964844	53.719677
475.101563	60.420322
473.240234	48.324806
471.376953	52.339470
469.513672	60.377380
467.650391	44.266251
465.785156	56.325508
463.921875	48.267555
462.056641	45.575214
460.191406	53.605179
458.324219	44.213779
456.458984	40.184803
454.591797	56.245369
452.724609	49.537727
450.855469	56.218662
448.988281	56.205307
447.119141	36.123402
445.250000	49.490673
443.380859	53.490715
441.511719	45.456299
439.640625	42.772224
437.769531	49.443626
435.898438	57.447842
434.027344	52.091461
432.154297	48.072983
430.283203	66.752136
428.410156	69.405693
426.535156	69.389168
424.662109	102.724876
422.787109	166.721436
420.912109	290.692902
419.037109	330.617706
417.162109	302.549713
415.285156	219.862549
413.408203	151.868805
411.531250	98.557999
409.654297	79.892822
407.775391	69.223923
405.898438	61.221931
404.019531	81.166222
402.140625	90.458778
400.259766	63.838005
398.378906	74.459877
396.500000	66.466148
394.617188	63.792255
392.736328	70.420448
390.853516	79.702202
388.972656	91.635612
387.089844	92.941422
385.205078	96.901443
383.322266	94.224052
381.437500	92.874718
379.552734	92.852486
377.667969	78.242638
375.781250	119.324593
373.896484	107.366402
372.009766	100.714714
370.123047	120.563713
368.234375	125.833046
366.347656	148.314957
364.458984	191.968857
362.570313	250.161453
360.681641	381.106934
358.791016	676.037842
356.900391	993.312256
355.009766	1281.342896
353.119141	1246.662598
351.228516	1167.061157
349.335938	993.679688
347.443359	789.996887
345.550781	685.467896
343.658203	574.387024
341.763672	447.518066
339.869141	388.019653
337.974609	331.188782
336.080078	282.300171
334.183594	276.956848
332.287109	258.430817
330.390625	271.550659
328.494141	268.849457
326.597656	288.548279
324.699219	318.775604
322.800781	300.261627
320.902344	288.339661
319.001953	234.301743
317.103516	213.189468
315.203125	178.930695
313.302734	160.472626
311.400391	149.913635
309.500000	135.415573
307.597656	136.697266
305.695313	102.498184
303.792969	98.532135
301.888672	110.329323
299.984375	129.999557
298.080078	171.978012
296.175781	158.811508
294.269531	129.905243
292.365234	106.260391
290.458984	106.234673
288.552734	81.295746
286.644531	79.965157
284.738281	79.945786
282.830078	85.167496
280.921875	74.667244
279.011719	70.720238
277.103516	74.631042
275.193359	79.848938
273.283203	71.977478
271.371094	74.576744
269.460938	70.634506
267.548828	62.770985
265.636719	79.752090
263.724609	73.197250
261.810547	78.406578
259.896484	74.468147
257.982422	60.082493
256.068359	58.762062
254.154297	56.136757
252.238281	58.733479
250.322266	46.975353
248.406250	61.314007
246.488281	58.690609
244.572266	63.891991
242.654297	62.572826
240.736328	54.737885
238.816406	61.239372
236.898438	83.369461
234.978516	89.860779
233.058594	98.952957
231.136719	96.325424
229.216797	104.110184
227.294922	76.762520
225.373047	67.638588
223.451172	46.815277
221.527344	55.904591
219.603516	66.289246
217.679688	54.577801
215.755859	62.359379
213.832031	58.447624
211.906250	72.717033
209.980469	54.524429
208.054688	62.298386
206.126953	59.688004
204.201172	63.565132
202.273438	62.252632
200.343750	62.237381
198.416016	75.185074
196.486328	71.278717
194.556641	81.626511
192.626953	103.627289
190.697266	71.226288
188.765625	88.039978
186.833984	69.896942
184.902344	54.350937
182.970703	80.212631
181.037109	107.355049
179.103516	106.035553
177.169922	126.694267
175.236328	121.493195
173.300781	122.755478
171.367188	105.931297
169.429688	102.030647
167.494141	98.131905
165.558594	78.744370
163.621094	69.690964
161.683594	68.383537
159.744141	58.047188
157.806641	60.612122
155.867188	54.150669
153.927734	50.270363
151.988281	54.123959
150.046875	68.282425
148.105469	57.961330
146.164063	68.248711
144.222656	57.932709
142.281250	59.205471
140.337891	42.462994
138.394531	48.884693
136.451172	42.441998
134.505859	50.146320
132.562500	47.562943
130.617188	55.262173
128.669922	43.684853
126.724609	47.527626
124.777344	37.242157
122.830078	47.504082
120.882813	47.492306
118.933594	50.047047
116.986328	43.619938
115.037109	42.326496
113.087891	34.622173
111.136719	43.587471
109.185547	44.858315
107.234375	51.253914
105.283203	34.587795
103.332031	26.894934
101.378906	37.131390
99.425781	34.562004
97.472656	26.874874
95.519531	29.427061
93.564453	46.048283
91.609375	26.854811
89.654297	21.734194
87.697266	44.735722
85.742188	46.002419
83.785156	29.383106
81.828125	39.593441
79.869141	40.860455
77.910156	43.403400
75.951172	49.773827
73.992188	42.105801
72.033203	42.095284
70.072266	42.084766
68.111328	53.549046
66.150391	48.437023
64.189453	47.150570
62.226563	45.864754
60.263672	52.221790
58.300781	36.928116
56.335938	44.557259
54.373047	26.727659
52.408203	11.451840
50.441406	12.721079
48.476563	5.087156
46.509766	12.714700
44.542969	6.355755
42.576172	6.354160
40.609375	2.541026
38.640625	6.350970
36.671875	7.619249
34.703125	6.347779
32.732422	7.615420
30.763672	7.613505
28.792969	6.342991
26.820313	6.341395
24.849609	8.875719
22.876953	13.944047
20.904297	8.871250
18.931641	5.068008
16.957031	1.266683
14.982422	0.000000
