#Wave		#Intensity
1790.623047	58.876339
1789.050781	47.737572
1787.480469	42.955246
1785.908203	55.671623
1784.335938	34.986607
1782.763672	60.419350
1781.191406	50.869289
1779.619141	25.429564
1778.044922	57.205078
1776.472656	44.483940
1774.898438	42.886646
1773.324219	53.994595
1771.750000	52.396027
1770.173828	36.511127
1768.599609	42.852295
1767.023438	41.256901
1765.447266	52.354023
1763.871094	42.826511
1762.294922	39.646217
1760.718750	58.664616
1759.140625	44.385921
1757.564453	47.546787
1755.986328	55.460094
1754.408203	45.943405
1752.830078	34.846600
1751.251953	42.757671
1749.671875	44.332355
1748.093750	52.238316
1746.513672	42.731823
1744.933594	47.470226
1743.353516	50.624691
1741.773438	42.705959
1740.191406	44.278717
1738.611328	44.269772
1737.029297	42.680080
1735.447266	48.993145
1733.865234	44.242924
1732.283203	42.654182
1730.699219	53.701801
1729.117188	26.845463
1727.533203	44.207096
1725.949219	48.933651
1724.365234	42.610989
1722.781250	42.602345
1721.195313	52.058964
1719.611328	39.430603
1718.025391	44.153305
1716.439453	48.874081
1714.853516	42.559097
1713.267578	50.430153
1711.679688	34.663677
1710.093750	48.834332
1708.505859	33.074585
1706.917969	50.389107
1705.330078	34.635452
1703.742188	42.498482
1702.154297	36.195026
1700.564453	34.614269
1698.976563	40.899426
1697.386719	33.027405
1695.796875	39.310310
1694.205078	34.586006
1692.615234	39.294247
1691.023438	47.143456
1689.433594	40.849304
1687.841797	28.274502
1686.250000	36.121136
1684.658203	42.394386
1683.064453	37.676182
1681.472656	53.363651
1679.878906	40.799133
1678.285156	39.221889
1676.691406	34.508183
1675.097656	47.046955
1673.503906	40.765656
1671.908203	45.460049
1670.312500	37.614380
1668.716797	45.441368
1667.121094	37.598915
1665.525391	45.422680
1663.929688	42.281380
1662.332031	34.444405
1660.736328	31.306646
1659.138672	42.255268
1657.541016	34.423122
1655.941406	35.980392
1654.343750	26.588720
1652.744141	37.529274
1651.146484	50.028706
1649.546875	40.639931
1647.947266	45.319794
1646.347656	37.498291
1644.746094	34.366329
1643.146484	49.977055
1641.544922	45.282341
1639.943359	39.028427
1638.341797	42.141975
1636.740234	32.770309
1635.136719	42.124531
1633.535156	40.555958
1631.931641	45.226120
1630.328125	45.216743
1628.724609	49.883991
1627.119141	43.639439
1625.515625	45.188610
1623.910156	40.505520
1622.306641	37.381947
1620.701172	42.045952
1619.093750	32.695614
1617.488281	45.141701
1615.882813	38.907166
1614.275391	46.678890
1612.667969	40.446621
1611.060547	38.882885
1609.453125	27.989849
1607.845703	41.976028
1606.236328	49.739006
1604.628906	31.080399
1603.019531	38.842400
1601.410156	37.280926
1599.800781	49.697533
1598.189453	45.028992
1596.580078	48.124390
1594.968750	46.562263
1593.357422	51.207794
1591.746094	37.234249
1590.134766	43.430878
1588.521484	40.320240
1586.910156	46.513622
1585.296875	51.154282
1583.683594	43.394547
1582.070313	35.638058
1580.457031	46.474689
1578.841797	44.916122
1577.228516	40.261189
1575.613281	47.993664
1573.998047	52.627174
1572.382813	43.330933
1570.767578	34.038589
1569.150391	43.312752
1567.535156	47.943333
1565.917969	41.748329
1564.300781	37.101830
1562.683594	32.457279
1561.064453	40.176754
1559.447266	38.623371
1557.828125	50.972126
1556.208984	27.797129
1554.589844	29.335239
1552.970703	35.503601
1551.351563	41.669365
1549.730469	35.488647
1548.109375	44.737129
1546.488281	38.558361
1544.867188	24.672148
1543.246094	26.208628
1541.625000	35.451252
1540.001953	36.984802
1538.378906	38.517704
1536.755859	40.049953
1535.132813	32.341206
1533.509766	33.874107
1531.884766	30.788134
1530.261719	32.320705
1528.636719	36.930138
1527.011719	30.768606
1525.386719	36.914513
1523.759766	43.057819
1522.134766	41.511250
1520.507813	41.502457
1518.880859	32.272850
1517.253906	39.948399
1515.626953	43.012234
1513.998047	50.682240
1512.371094	42.993992
1510.742188	42.984871
1509.113281	44.510601
1507.484375	47.570198
1505.855469	24.547146
1504.224609	41.414513
1502.593750	36.805080
1500.964844	50.596230
1499.332031	36.789436
1497.701172	38.314182
1496.070313	36.773792
1494.437500	42.893631
1492.806641	32.163380
1491.173828	38.281586
1489.541016	35.211563
1487.906250	36.734673
1486.273438	41.317703
1484.638672	45.898781
1483.003906	35.181564
1481.371094	39.761986
1479.734375	42.811466
1478.099609	25.987131
1476.464844	55.019833
1474.828125	29.032047
1473.191406	38.191906
1471.554688	32.074352
1469.917969	22.905357
1468.279297	41.220833
1466.642578	39.685654
1465.003906	33.572990
1463.365234	32.040092
1461.726563	41.185596
1460.085938	24.401058
1458.447266	35.069016
1456.806641	48.781227
1455.166016	27.433565
1453.525391	33.522732
1451.884766	25.898382
1450.244141	31.985264
1448.601563	31.978409
1446.960938	35.016464
1445.318359	39.575340
1443.675781	50.219463
1442.031250	42.601315
1440.388672	25.859533
1438.744141	34.978916
1437.099609	38.012398
1435.455078	48.645420
1433.810547	28.877014
1432.166016	34.948875
1430.519531	30.383795
1428.873047	41.009304
1427.226563	34.926342
1425.580078	31.882408
1423.933594	33.393433
1422.287109	45.526699
1420.638672	40.965210
1418.990234	37.922585
1417.341797	24.265228
1415.693359	40.938751
1414.044922	33.350315
1412.394531	30.311935
1410.744141	31.820671
1409.093750	39.388527
1407.443359	34.836182
1405.792969	34.828667
1404.142578	40.877007
1402.490234	30.272730
1400.837891	43.885983
1399.185547	42.363522
1397.533203	42.354374
1395.880859	30.246588
1394.226563	40.824074
1392.572266	27.210167
1390.917969	43.829124
1389.263672	43.819649
1387.609375	49.852951
1385.953125	37.759216
1384.298828	42.281174
1382.642578	42.272022
1380.986328	36.225319
1379.330078	37.726536
1377.671875	31.683428
1376.015625	28.659748
1374.357422	31.669701
1372.699219	36.186100
1371.041016	28.641119
1369.382813	40.691711
1367.722656	43.696434
1366.062500	42.180508
1364.404297	36.146877
1362.742188	36.139030
1361.082031	36.131187
1359.421875	36.123344
1357.759766	45.144371
1356.097656	36.107655
1354.435547	39.108124
1352.773438	34.588131
1351.111328	24.056078
1349.447266	40.585808
1347.785156	42.079834
1346.121094	36.060581
1344.457031	36.052738
1342.791016	33.041153
1341.126953	36.037048
1339.460938	36.029202
1337.796875	45.026695
1336.130859	40.515202
1334.462891	49.507790
1332.796875	35.997822
1331.128906	35.989975
1329.462891	34.482876
1327.794922	34.475357
1326.126953	32.969238
1324.457031	19.477573
1322.789063	35.950752
1321.119141	26.957178
1319.449219	43.421532
1317.779297	22.454510
1316.109375	40.409290
1314.437500	35.911526
1312.767578	37.399666
1311.095703	35.895836
1309.423828	38.878658
1307.751953	37.375153
1306.078125	34.377625
1304.406250	28.392696
1302.732422	40.338692
1301.058594	31.367674
1299.384766	32.854183
1297.710938	46.284397
1296.035156	38.810673
1294.361328	49.248917
1292.685547	40.285744
1291.009766	31.326492
1289.332031	37.285275
1287.656250	32.803852
1285.978516	40.250446
1284.302734	28.318180
1282.625000	41.722904
1280.945313	28.305761
1279.267578	34.257355
1277.587891	22.336851
1275.910156	37.219917
1274.230469	26.792458
1272.550781	34.227291
1270.869141	40.171043
1269.189453	29.749792
1267.507813	32.717583
1265.826172	41.631413
1264.144531	38.649246
1262.462891	35.668385
1260.779297	49.033249
1259.097656	49.022469
1257.414063	40.100471
1255.730469	38.606773
1254.046875	44.536476
1252.361328	47.495121
1250.677734	17.806751
1248.992188	37.089230
1247.306641	47.463764
1245.621094	37.072899
1243.933594	41.512501
1242.248047	34.092041
1240.560547	31.120659
1238.873047	31.113800
1237.185547	38.513355
1235.498047	29.619127
1233.808594	37.015743
1232.121094	45.889400
1230.431641	32.559486
1228.742188	35.511604
1227.050781	34.024445
1225.361328	41.411919
1223.669922	31.052082
1221.978516	44.350323
1220.287109	38.428459
1218.595703	31.031513
1216.904297	38.411480
1215.210938	38.402992
1213.517578	35.441082
1211.824219	36.909634
1210.130859	39.853592
1208.437500	41.320511
1206.742188	35.409744
1205.048828	50.152710
1203.353516	42.767845
1201.656250	33.911819
1199.960938	48.645321
1198.265625	38.318130
1196.568359	38.309647
1194.871094	41.247406
1193.173828	27.983112
1191.476563	29.449381
1189.777344	30.914999
1188.078125	33.851780
1186.380859	26.486826
1184.681641	32.365608
1182.980469	44.125134
1181.281250	32.351257
1179.580078	33.814266
1177.878906	26.457466
1176.177734	38.207859
1174.476563	42.607002
1172.775391	42.597546
1171.072266	44.056641
1169.369141	27.896343
1167.666016	33.761757
1165.962891	35.221832
1164.259766	52.821014
1162.554688	29.338486
1160.849609	27.865368
1159.144531	29.325445
1157.439453	30.784872
1155.734375	36.640507
1154.027344	45.424122
1152.322266	39.554146
1150.615234	46.868557
1148.908203	42.465179
1147.199219	29.279812
1145.492188	38.055283
1143.783203	30.730116
1142.074219	42.427376
1140.365234	36.567177
1138.656250	35.096672
1136.945313	38.012920
1135.236328	35.081032
1133.525391	43.841518
1131.814453	43.831745
1130.101563	37.979042
1128.390625	37.970573
1126.677734	35.041943
1124.964844	32.114616
1123.251953	32.107452
1121.539063	33.559391
1119.826172	37.928234
1118.111328	14.584527
1116.396484	52.492573
1114.681641	42.276241
1112.966797	43.724277
1111.250000	52.457413
1109.535156	42.247921
1107.818359	52.433975
1106.101563	48.053734
1104.384766	40.763752
1102.666016	49.487778
1100.949219	46.566319
1099.230469	48.010777
1097.511719	37.818211
1095.792969	47.989300
1094.072266	43.616875
1092.353516	42.153545
1090.632813	45.050598
1088.912109	43.587593
1087.191406	47.935619
1085.468750	31.949924
1083.748047	33.394711
1082.025391	47.903419
1080.302734	47.892689
1078.580078	43.529049
1076.857422	37.716724
1075.132813	44.959858
1073.408203	56.549721
1071.683594	46.389370
1069.958984	30.436195
1068.234375	52.164635
1066.507813	50.704239
1064.781250	42.002659
1063.054688	40.545189
1061.328125	46.326958
1059.601563	46.316559
1057.873047	44.859093
1056.146484	56.422962
1054.417969	50.624619
1052.689453	56.397617
1050.958984	49.156109
1049.230469	52.035950
1047.500000	49.134018
1045.769531	57.791737
1044.039063	56.334278
1042.308594	50.545036
1040.576172	69.303314
1038.843750	49.078808
1037.111328	51.954109
1035.378906	49.056728
1033.646484	49.045692
1031.912109	47.592457
1030.179688	46.139874
1028.445313	51.895672
1026.710938	49.001545
1024.974609	51.872303
1023.240234	38.895466
1021.503906	41.767200
1019.767578	44.637638
1018.031250	44.627579
1016.294922	46.056793
1014.556641	48.924313
1012.818359	47.474659
1011.080078	66.161873
1009.341797	58.957069
1007.603516	47.442547
1005.863281	47.431843
1004.125000	45.984138
1002.384766	45.973763
1000.642578	45.963387
998.902344	47.389042
997.162109	61.735416
995.419922	44.496880
993.677734	38.746593
991.935547	61.693600
990.191406	67.417305
988.449219	51.627121
986.705078	58.784267
984.960938	64.504738
983.216797	55.891468
981.472656	65.908363
979.726563	60.163593
977.980469	71.607132
976.234375	68.727295
974.488281	70.143242
972.742188	51.522152
970.994141	65.818962
969.246094	61.512497
967.498047	70.079765
965.750000	52.905396
964.001953	61.470726
962.251953	61.456806
960.501953	57.156170
958.751953	51.428902
957.001953	62.843304
955.251953	51.405598
953.500000	48.538727
951.748047	51.382298
949.996094	65.640274
948.244141	58.492195
946.492188	51.347351
944.738281	54.187691
942.984375	68.432083
941.230469	62.715172
939.476563	75.526138
937.722656	66.960808
935.966797	68.369980
934.210938	66.930405
932.455078	68.338936
930.699219	56.936180
928.941406	56.923248
927.185547	45.528255
925.427734	48.362782
923.669922	51.196014
921.912109	66.824051
920.152344	38.379559
918.392578	59.687962
916.632813	49.728657
914.873047	49.717350
913.113281	56.806904
911.353516	42.595486
909.591797	45.424847
907.830078	72.379379
906.068359	42.566414
904.306641	62.416531
902.542969	51.056446
900.779297	49.626907
899.015625	62.373905
897.251953	63.776966
895.488281	48.176064
893.722656	50.998329
891.957031	49.570412
890.193359	69.382759
888.425781	62.288685
886.660156	53.782509
884.892578	65.090302
883.126953	69.319504
881.359375	73.546783
879.589844	66.459808
877.822266	76.340660
876.052734	66.429489
874.285156	69.240471
872.513672	66.399170
870.744141	70.621284
868.974609	67.780960
867.203125	70.589043
865.431641	70.572922
863.660156	67.734528
861.888672	62.075798
860.115234	63.472107
858.343750	54.996586
856.570313	69.082481
854.796875	81.752411
853.021484	60.595688
851.248047	61.990711
849.472656	77.470665
847.697266	74.636475
845.921875	47.869049
844.146484	76.009918
842.369141	75.992523
840.591797	83.009865
838.814453	64.704742
837.037109	63.283623
835.259766	64.675110
833.480469	67.471619
831.701172	67.456161
829.921875	78.680824
828.142578	68.829948
826.363281	64.601067
824.582031	77.222702
822.800781	81.416176
821.019531	70.170273
819.238281	77.169594
817.455078	84.165710
815.673828	71.524445
813.890625	68.703796
812.107422	79.902405
810.322266	79.884071
808.539063	58.848438
806.753906	63.037422
804.968750	67.224480
803.183594	63.008480
801.398438	74.192947
799.611328	48.984085
797.824219	71.360413
796.037109	47.562679
794.250000	61.537556
792.462891	50.337337
790.673828	50.325768
788.884766	58.699898
787.095703	74.056648
785.306641	60.069874
783.515625	61.452709
781.726563	68.420227
779.935547	54.444389
778.144531	79.554253
776.351563	78.140579
774.560547	78.122589
772.767578	100.420204
770.974609	85.058640
769.181641	86.433128
767.386719	100.350838
765.593750	83.606430
763.798828	87.766525
762.003906	87.746300
760.208984	90.511032
758.412109	104.411736
756.617188	96.036644
754.820313	90.448441
753.023438	75.124451
751.226563	90.406723
749.427734	93.166969
747.628906	94.535706
745.830078	84.784515
744.031250	98.660835
742.232422	86.134644
740.431641	87.503708
738.632813	94.426636
736.832031	91.628212
735.029297	92.995033
733.228516	90.198219
731.425781	84.627998
729.625000	84.608444
727.820313	97.069214
726.017578	92.887619
724.214844	97.024330
722.410156	102.544861
720.605469	103.906563
718.800781	132.969635
716.996094	132.938858
715.189453	139.830399
713.382813	175.785645
711.576172	168.825867
709.769531	207.524734
707.962891	248.972015
706.154297	257.211487
704.345703	262.682068
702.537109	268.150085
700.728516	268.087952
698.919922	262.499512
697.109375	274.869965
695.298828	248.568466
693.488281	223.659760
691.675781	230.509369
689.865234	215.276169
688.052734	211.087265
686.240234	182.072250
684.427734	186.167053
682.615234	186.123840
680.800781	169.540131
678.986328	173.634933
677.171875	168.083679
675.357422	170.799469
673.541016	169.382706
671.726563	159.705933
669.910156	158.292358
668.091797	127.980598
666.275391	158.218796
664.458984	141.676056
662.640625	148.518997
660.822266	126.486763
659.003906	125.082809
657.183594	129.176361
655.363281	130.520203
653.544922	114.006905
651.722656	116.726883
649.902344	127.683212
648.082031	140.007050
646.259766	127.623756
644.437500	105.642372
642.615234	115.219376
640.791016	101.479141
638.968750	100.084473
637.144531	93.207642
635.320313	89.074768
633.496094	91.794128
631.669922	105.470146
629.843750	101.337280
628.019531	86.253502
626.191406	95.814865
624.365234	93.055580
622.537109	93.033867
620.710938	97.115623
618.882813	88.887917
617.052734	105.273399
615.224609	90.213272
613.394531	91.558746
611.564453	84.706207
609.734375	94.247787
607.904297	92.860168
606.072266	94.203735
604.242188	96.911613
602.410156	87.336525
600.578125	100.959236
598.744141	98.207634
596.910156	94.093628
595.078125	107.705177
593.244141	130.851608
591.408203	159.438065
589.574219	257.493500
587.738281	303.743958
585.902344	411.251984
584.066406	401.625549
582.228516	389.281342
580.392578	330.675507
578.554688	281.620514
576.716797	223.067337
574.878906	198.537781
573.039063	194.412643
571.199219	154.949951
569.359375	139.965805
567.519531	116.837227
565.679688	126.317581
563.837891	120.856201
561.996094	119.470207
560.154297	119.442162
558.312500	109.915260
556.470703	120.742722
554.626953	132.921432
552.783203	154.586548
550.939453	187.087112
549.093750	188.398514
547.250000	193.774490
545.404297	189.664688
543.558594	201.809937
541.712891	223.428238
539.865234	207.130173
538.017578	230.090469
536.171875	239.508408
534.322266	255.686066
532.474609	258.330902
530.625000	256.917847
528.777344	324.451385
526.927734	367.624939
525.076172	468.881622
523.226563	721.394165
521.375000	952.177917
519.523438	772.365051
517.671875	494.089081
515.820313	353.608765
513.966797	282.010681
512.113281	249.567780
510.259766	241.416702
508.406250	198.211609
506.550781	203.557068
504.695313	206.204483
502.841797	202.113510
500.984375	184.553406
499.128906	192.590530
497.271484	153.497421
495.414063	185.768753
493.556641	176.304016
491.699219	173.571304
489.839844	177.565842
487.982422	169.454575
486.123047	162.691696
484.263672	158.620468
482.402344	180.085693
480.541016	186.761093
478.681641	178.657150
476.818359	182.643753
474.957031	171.859283
473.095703	159.737579
471.232422	138.227493
469.369141	116.727592
467.503906	120.724052
465.640625	113.990128
463.775391	132.733490
461.910156	117.957336
460.044922	129.990311
458.179688	140.677765
456.312500	116.533920
454.445313	109.810493
452.578125	120.495094
450.710938	121.804993
448.843750	136.496246
446.974609	115.057732
445.105469	120.380638
443.236328	145.759674
441.365234	145.725021
439.496094	141.680557
437.625000	136.301697
435.753906	138.941208
433.880859	142.915115
432.009766	164.246506
430.136719	162.872406
428.263672	197.535873
426.390625	277.551880
424.515625	477.595703
422.642578	1028.320068
420.767578	1566.781006
418.890625	1361.108154
417.015625	1115.549438
415.138672	798.153870
413.263672	471.584473
411.386719	311.650970
409.507813	248.994995
407.630859	240.948334
405.751953	187.655289
403.873047	223.535904
401.994141	194.216949
400.113281	175.551468
398.234375	184.816864
396.353516	188.760605
394.472656	192.702438
392.589844	182.027054
390.708984	189.953613
388.826172	216.468781
386.943359	223.055557
385.058594	246.895279
383.175781	261.434052
381.291016	244.123596
379.406250	241.412277
377.521484	250.637329
375.634766	243.948273
373.750000	278.352509
371.863281	303.464050
369.976563	306.041046
368.087891	357.624542
366.201172	418.452820
364.312500	550.742493
362.423828	807.385376
360.533203	1476.763794
358.644531	2505.662354
356.753906	3609.456787
354.863281	4349.084961
352.972656	4617.727539
351.080078	4415.723633
349.189453	3756.625244
347.296875	2943.281738
345.404297	2323.154297
343.509766	1894.783936
341.617188	1570.906372
339.722656	1305.254395
337.828125	1112.300049
335.931641	985.395203
334.037109	882.290100
332.140625	857.026123
330.244141	854.183350
328.347656	908.010132
326.449219	998.702271
324.550781	995.827087
322.652344	1017.974609
320.753906	928.200562
318.855469	792.400024
316.955078	679.036133
315.054688	593.355469
313.154297	540.599182
311.253906	522.058594
309.351563	439.106964
307.449219	341.737244
305.546875	339.026581
303.644531	302.159973
301.740234	355.937225
299.837891	434.637390
297.933594	481.792603
296.027344	450.176849
294.123047	372.651001
292.216797	305.657288
290.310547	292.468140
288.404297	242.571793
286.496094	235.958649
284.589844	238.522614
282.681641	217.500885
280.773438	204.348892
278.863281	192.512863
276.955078	201.631241
275.044922	181.947693
273.134766	177.977585
271.222656	198.867859
269.312500	223.672043
267.400391	235.387100
265.488281	218.333893
263.576172	214.359650
261.662109	201.240036
259.748047	160.691620
257.833984	159.346436
255.919922	168.448303
254.005859	160.574448
252.089844	140.957901
250.173828	143.533295
248.257813	148.716492
246.339844	123.900238
244.423828	146.036285
242.505859	156.429337
240.587891	186.366211
238.667969	198.047287
236.750000	240.985641
234.830078	283.903015
232.910156	322.893494
230.988281	313.703003
229.068359	253.764145
227.146484	191.252441
225.224609	165.191360
223.300781	156.048203
221.378906	145.609421
219.455078	157.271729
217.531250	171.527237
215.607422	184.476608
213.681641	184.431503
211.755859	183.087891
209.830078	181.744919
207.904297	177.806870
205.978516	147.919861
204.050781	163.450348
202.123047	173.785568
200.195313	193.191833
198.265625	198.329575
196.337891	230.679810
194.408203	237.101440
192.478516	240.929245
190.546875	191.660110
188.617188	191.613068
186.685547	204.509689
184.751953	197.989243
182.820313	208.290451
180.886719	256.095520
178.955078	307.756348
177.019531	325.779572
175.085938	350.256165
173.152344	310.113678
171.216797	275.158173
169.281250	260.883911
167.343750	182.057327
165.408203	192.339447
163.470703	184.548767
161.533203	167.730286
159.593750	166.399033
157.656250	145.724457
155.716797	166.317001
153.777344	140.496750
151.837891	155.925812
149.896484	159.752304
147.955078	161.000885
146.013672	144.221176
144.072266	124.874985
142.130859	129.992340
140.187500	124.813278
138.244141	110.631844
136.300781	129.895966
134.355469	115.720253
132.410156	114.406158
130.464844	123.373848
128.519531	107.925392
126.574219	106.614159
124.626953	100.166801
122.679688	110.412956
120.732422	106.534927
118.783203	103.942039
116.833984	109.047935
114.884766	96.194893
112.935547	106.429268
110.986328	101.274994
109.035156	84.588486
107.083984	87.130127
105.132813	83.265457
103.179688	90.928894
101.228516	74.261475
99.275391	80.643265
97.322266	72.944801
95.367188	78.044312
93.412109	76.745789
91.457031	84.399353
89.501953	80.542953
87.546875	76.688461
85.589844	84.336288
83.632813	72.817726
81.675781	74.076752
79.716797	90.657539
77.759766	85.528725
75.800781	86.783607
73.841797	99.521049
71.880859	103.322968
69.919922	108.398254
67.958984	98.171524
65.998047	108.344070
64.037109	117.237198
62.074219	109.563881
60.111328	122.273262
58.148438	92.955353
56.183594	80.201653
54.220703	61.090717
52.255859	41.989346
50.291016	24.169624
48.324219	16.532965
46.357422	8.900133
44.390625	2.542257
42.423828	-3.812429
40.457031	3.811472
38.488281	7.621029
36.519531	16.508083
34.550781	5.078134
32.580078	11.422929
30.609375	5.075581
28.638672	10.148608
26.667969	12.682568
24.697266	6.339688
22.724609	-5.070473
20.751953	8.871094
18.779297	6.334899
16.804688	1.266660
14.830078	0.000000
